     BP2000 Electron Density
         astro-ph/001034

     8.19005E-03    2.00852
     8.31693E-03    2.00847
     8.44579E-03    2.00842
     8.57666E-03    2.00837
     8.70957E-03    2.00832
     8.84456E-03    2.00826
     8.98165E-03    2.00820
     9.12087E-03    2.00814
     9.26227E-03    2.00808
     9.40589E-03    2.00802
     9.55174E-03    2.00795
     9.69987E-03    2.00788
     9.85031E-03    2.00781
     1.00031E-02    2.00774
     1.01583E-02    2.00767
     1.03159E-02    2.00759
     1.04760E-02    2.00751
     1.06385E-02    2.00743
     1.08037E-02    2.00735
     1.09714E-02    2.00726
     1.11417E-02    2.00717
     1.13147E-02    2.00708
     1.14904E-02    2.00699
     1.16688E-02    2.00689
     1.18501E-02    2.00679
     1.20342E-02    2.00669
     1.22212E-02    2.00658
     1.24111E-02    2.00647
     1.26040E-02    2.00636
     1.27999E-02    2.00624
     1.29989E-02    2.00612
     1.32011E-02    2.00599
     1.34064E-02    2.00586
     1.36149E-02    2.00573
     1.38268E-02    2.00560
     1.40419E-02    2.00545
     1.42605E-02    2.00531
     1.44825E-02    2.00516
     1.47080E-02    2.00501
     1.49371E-02    2.00485
     1.51698E-02    2.00468
     1.54062E-02    2.00451
     1.56463E-02    2.00434
     1.58902E-02    2.00416
     1.61379E-02    2.00397
     1.63896E-02    2.00378
     1.66453E-02    2.00358
     1.69051E-02    2.00338
     1.71689E-02    2.00317
     1.74370E-02    2.00296
     1.77094E-02    2.00273
     1.79860E-02    2.00250
     1.82671E-02    2.00227
     1.85527E-02    2.00202
     1.88428E-02    2.00177
     1.91376E-02    2.00151
     1.94370E-02    2.00124
     1.97413E-02    2.00097
     2.00504E-02    2.00068
     2.03646E-02    2.00039
     2.06837E-02    2.00009
     2.10080E-02    1.99978
     2.13375E-02    1.99945
     2.16723E-02    1.99912
     2.20126E-02    1.99878
     2.23583E-02    1.99843
     2.27096E-02    1.99807
     2.30666E-02    1.99769
     2.34294E-02    1.99731
     2.37981E-02    1.99691
     2.41728E-02    1.99650
     2.45536E-02    1.99608
     2.49407E-02    1.99564
     2.53340E-02    1.99519
     2.57338E-02    1.99473
     2.61401E-02    1.99425
     2.65532E-02    1.99376
     2.69730E-02    1.99325
     2.73997E-02    1.99273
     2.78335E-02    1.99219
     2.82745E-02    1.99163
     2.87228E-02    1.99106
     2.91785E-02    1.99047
     2.96418E-02    1.98986
     3.01129E-02    1.98924
     3.05918E-02    1.98859
     3.10788E-02    1.98792
     3.15739E-02    1.98723
     3.20773E-02    1.98653
     3.25893E-02    1.98580
     3.31099E-02    1.98504
     3.36394E-02    1.98427
     3.41779E-02    1.98347
     3.47255E-02    1.98264
     3.52825E-02    1.98179
     3.58491E-02    1.98092
     3.64254E-02    1.98002
     3.70116E-02    1.97909
     3.76080E-02    1.97813
     3.82148E-02    1.97714
     3.88321E-02    1.97612
     3.94601E-02    1.97507
     4.00992E-02    1.97399
     4.07495E-02    1.97288
     4.14113E-02    1.97173
     4.20849E-02    1.97054
     4.27703E-02    1.96932
     4.34680E-02    1.96806
     4.41782E-02    1.96677
     4.49012E-02    1.96543
     4.56372E-02    1.96405
     4.63866E-02    1.96263
     4.71496E-02    1.96117
     4.79266E-02    1.95966
     4.87178E-02    1.95811
     4.95236E-02    1.95651
     5.03443E-02    1.95486
     5.11803E-02    1.95316
     5.20320E-02    1.95141
     5.28996E-02    1.94960
     5.37836E-02    1.94774
     5.46844E-02    1.94583
     5.55741E-02    1.94391
     5.64476E-02    1.94201
     5.73061E-02    1.94012
     5.81506E-02    1.93825
     5.89820E-02    1.93639
     5.98012E-02    1.93454
     6.06088E-02    1.93269
     6.14057E-02    1.93086
     6.21924E-02    1.92904
     6.29694E-02    1.92722
     6.37375E-02    1.92542
     6.44971E-02    1.92361
     6.52485E-02    1.92182
     6.59924E-02    1.92003
     6.67291E-02    1.91825
     6.74590E-02    1.91647
     6.81824E-02    1.91470
     6.88997E-02    1.91293
     6.96111E-02    1.91116
     7.03171E-02    1.90940
     7.10179E-02    1.90764
     7.17137E-02    1.90588
     7.24049E-02    1.90413
     7.30916E-02    1.90238
     7.37740E-02    1.90063
     7.44525E-02    1.89888
     7.51272E-02    1.89713
     7.57983E-02    1.89538
     7.64660E-02    1.89363
     7.71305E-02    1.89189
     7.77919E-02    1.89014
     7.84505E-02    1.88839
     7.91063E-02    1.88665
     7.97596E-02    1.88490
     8.04105E-02    1.88315
     8.10592E-02    1.88140
     8.17058E-02    1.87965
     8.23503E-02    1.87790
     8.29931E-02    1.87614
     8.36341E-02    1.87438
     8.42735E-02    1.87262
     8.49115E-02    1.87086
     8.55481E-02    1.86909
     8.61835E-02    1.86733
     8.68177E-02    1.86555
     8.74510E-02    1.86378
     8.80834E-02    1.86200
     8.87149E-02    1.86022
     8.93458E-02    1.85843
     8.99761E-02    1.85664
     9.06059E-02    1.85484
     9.12353E-02    1.85304
     9.18645E-02    1.85124
     9.24934E-02    1.84943
     9.31223E-02    1.84761
     9.37511E-02    1.84579
     9.43801E-02    1.84396
     9.50092E-02    1.84212
     9.56386E-02    1.84028
     9.62685E-02    1.83843
     9.68987E-02    1.83658
     9.75295E-02    1.83472
     9.81610E-02    1.83285
     9.87932E-02    1.83097
     9.94263E-02    1.82908
     1.00060E-01    1.82719
     1.00695E-01    1.82529
     1.01331E-01    1.82338
     1.01969E-01    1.82146
     1.02607E-01    1.81953
     1.03247E-01    1.81759
     1.03889E-01    1.81564
     1.04532E-01    1.81368
    0.105176    1.81171
    0.105823    1.80973
    0.106471    1.80774
    0.107122    1.80574
    0.107774    1.80372
    0.108429    1.80170
    0.109085    1.79966
    0.109745    1.79761
    0.110406    1.79554
    0.111071    1.79346
    0.111738    1.79137
    0.112408    1.78926
    0.113080    1.78714
    0.113756    1.78500
    0.114435    1.78285
    0.115117    1.78068
    0.115803    1.77849
    0.116492    1.77629
    0.117185    1.77406
    0.117882    1.77182
    0.118583    1.76957
    0.119288    1.76729
    0.119997    1.76499
    0.120711    1.76267
    0.121429    1.76034
    0.122151    1.75797
    0.122879    1.75559
    0.123612    1.75319
    0.124350    1.75076
    0.125094    1.74830
    0.125843    1.74582
    0.126598    1.74332
    0.127358    1.74079
    0.128126    1.73823
    0.128899    1.73564
    0.129680    1.73302
    0.130467    1.73037
    0.131261    1.72769
    0.132063    1.72498
    0.132873    1.72224
    0.133690    1.71946
    0.134516    1.71664
    0.135350    1.71379
    0.136194    1.71090
    0.137046    1.70796
    0.137908    1.70499
    0.138780    1.70197
    0.139663    1.69891
    0.140556    1.69581
    0.141460    1.69265
    0.142375    1.68944
    0.143303    1.68619
    0.144243    1.68288
    0.145196    1.67951
    0.146163    1.67608
    0.147143    1.67260
    0.148138    1.66905
    0.149149    1.66543
    0.150175    1.66174
    0.151218    1.65798
    0.152279    1.65415
    0.153358    1.65024
    0.154456    1.64624
    0.155574    1.64216
    0.156714    1.63798
    0.157876    1.63371
    0.159061    1.62933
    0.160272    1.62484
    0.161509    1.62024
    0.162774    1.61552
    0.164070    1.61066
    0.165397    1.60567
    0.166758    1.60053
    0.168156    1.59522
    0.169593    1.58975
    0.171072    1.58409
    0.172596    1.57823
    0.174169    1.57216
    0.175795    1.56585
    0.177478    1.55929
    0.179223    1.55245
    0.181037    1.54531
    0.182894    1.53796
    0.184743    1.53061
    0.186585    1.52324
    0.188419    1.51587
    0.190247    1.50849
    0.192067    1.50111
    0.193880    1.49371
    0.195687    1.48631
    0.197488    1.47890
    0.199282    1.47148
    0.201070    1.46405
    0.202852    1.45662
    0.204629    1.44917
    0.206399    1.44172
    0.208164    1.43426
    0.209924    1.42679
    0.211679    1.41931
    0.213428    1.41182
    0.215173    1.40432
    0.216913    1.39681
    0.218648    1.38930
    0.220379    1.38178
    0.222105    1.37425
    0.223827    1.36671
    0.225545    1.35916
    0.227258    1.35160
    0.228968    1.34404
    0.230674    1.33646
    0.232376    1.32888
    0.234075    1.32129
    0.235770    1.31369
    0.237462    1.30608
    0.239151    1.29846
    0.240836    1.29083
    0.242519    1.28320
    0.244198    1.27555
    0.245875    1.26790
    0.247549    1.26024
    0.249220    1.25257
    0.250889    1.24490
    0.252555    1.23721
    0.254218    1.22952
    0.255880    1.22182
    0.257539    1.21412
    0.259196    1.20640
    0.260851    1.19868
    0.262505    1.19095
    0.264156    1.18322
    0.265805    1.17548
    0.267453    1.16773
    0.269099    1.15997
    0.270744    1.15221
    0.272386    1.14444
    0.274028    1.13667
    0.275668    1.12889
    0.277307    1.12110
    0.278945    1.11331
    0.280581    1.10551
    0.282217    1.09770
    0.283852    1.08989
    0.285485    1.08207
    0.287118    1.07424
    0.288750    1.06641
    0.290381    1.05857
    0.292012    1.05073
    0.293642    1.04288
    0.295272    1.03502
    0.296901    1.02716
    0.298529    1.01929
    0.300158    1.01141
    0.301786    1.00353
    0.303414   0.995649
    0.305042   0.987759
    0.306669   0.979863
    0.308297   0.971962
    0.309924   0.964056
    0.311552   0.956145
    0.313180   0.948228
    0.314808   0.940307
    0.316436   0.932382
    0.318064   0.924451
    0.319693   0.916517
    0.321322   0.908579
    0.322951   0.900637
    0.324581   0.892691
    0.326211   0.884741
    0.327842   0.876787
    0.329474   0.868830
    0.331106   0.860869
    0.332738   0.852904
    0.334371   0.844935
    0.336005   0.836962
    0.337640   0.828986
    0.339276   0.821007
    0.340912   0.813023
    0.342549   0.805037
    0.344188   0.797046
    0.345827   0.789052
    0.347467   0.781055
    0.349108   0.773054
    0.350750   0.765049
    0.352394   0.757041
    0.354038   0.749030
    0.355684   0.741015
    0.357331   0.732997
    0.358979   0.724976
    0.360628   0.716952
    0.362279   0.708924
    0.363931   0.700894
    0.365584   0.692861
    0.367239   0.684825
    0.368895   0.676786
    0.370552   0.668745
    0.372211   0.660702
    0.373872   0.652657
    0.375534   0.644609
    0.377198   0.636560
    0.378863   0.628509
    0.380530   0.620455
    0.382199   0.612399
    0.383869   0.604341
    0.385541   0.596282
    0.387214   0.588220
    0.388890   0.580156
    0.390567   0.572091
    0.392246   0.564023
    0.393927   0.555954
    0.395609   0.547883
    0.397294   0.539810
    0.398980   0.531735
    0.400668   0.523659
    0.402359   0.515581
    0.404051   0.507501
    0.405745   0.499420
    0.407441   0.491337
    0.409139   0.483253
    0.410839   0.475167
    0.412542   0.467079
    0.414246   0.458990
    0.415953   0.450899
    0.417661   0.442807
    0.419372   0.434712
    0.421085   0.426617
    0.422800   0.418520
    0.424517   0.410423
    0.426237   0.402325
    0.427958   0.394227
    0.429682   0.386127
    0.431408   0.378027
    0.433137   0.369925
    0.434868   0.361823
    0.436601   0.353721
    0.438336   0.345617
    0.440074   0.337513
    0.441814   0.329408
    0.443556   0.321302
    0.445301   0.313196
    0.447048   0.305090
    0.448798   0.296982
    0.450550   0.288874
    0.452304   0.280766
    0.454061   0.272658
    0.455821   0.264548
    0.457582   0.256439
    0.459347   0.248329
    0.461114   0.240219
    0.462883   0.232109
    0.464655   0.223999
    0.466429   0.215888
    0.468206   0.207777
    0.469985   0.199667
    0.471767   0.191557
    0.473551   0.183446
    0.475338   0.175336
    0.477128   0.167227
    0.478920   0.159119
    0.480715   0.151011
    0.482512   0.142904
    0.484312   0.134798
    0.486114   0.126692
    0.487919   0.118588
    0.489727   0.110484
    0.491537    1.02381E-01
    0.493350    9.42788E-02
    0.495165    8.61776E-02
    0.496983    7.80776E-02
    0.498804    6.99785E-02
    0.500627    6.18801E-02
    0.502452    5.37825E-02
    0.504281    4.56859E-02
    0.506112    3.75906E-02
    0.507945    2.94959E-02
    0.509782    2.14027E-02
    0.511620    1.33105E-02
    0.513462    5.21979E-03
    0.515306   -2.86977E-03
    0.517152   -1.09577E-02
    0.519002   -1.90443E-02
    0.520853   -2.71290E-02
    0.522708   -3.52124E-02
    0.524565   -4.32938E-02
    0.526424   -5.13732E-02
    0.528286   -5.94509E-02
    0.530151   -6.75265E-02
    0.532018   -7.55995E-02
    0.533888   -8.36701E-02
    0.535760   -9.17377E-02
    0.537635   -9.98027E-02
    0.539512  -0.107865
    0.541392  -0.115924
    0.543274  -0.123980
    0.545159  -0.132033
    0.547046  -0.140083
    0.548936  -0.148130
    0.550828  -0.156174
    0.552723  -0.164214
    0.554620  -0.172250
    0.556519  -0.180283
    0.558421  -0.188313
    0.560325  -0.196338
    0.562231  -0.204360
    0.564140  -0.212378
    0.566051  -0.220391
    0.567964  -0.228400
    0.569879  -0.236405
    0.571797  -0.244406
    0.573716  -0.252401
    0.575638  -0.260391
    0.577562  -0.268377
    0.579489  -0.276357
    0.581417  -0.284332
    0.583347  -0.292301
    0.585279  -0.300265
    0.587213  -0.308222
    0.589150  -0.316173
    0.591088  -0.324118
    0.593028  -0.332056
    0.594969  -0.339986
    0.596913  -0.347909
    0.598858  -0.355824
    0.600805  -0.363732
    0.602753  -0.371631
    0.604703  -0.379522
    0.606655  -0.387405
    0.608608  -0.395279
    0.610563  -0.403143
    0.612519  -0.410999
    0.614476  -0.418844
    0.616434  -0.426680
    0.618394  -0.434505
    0.620355  -0.442320
    0.622317  -0.450125
    0.624279  -0.457918
    0.626243  -0.465700
    0.628208  -0.473470
    0.630174  -0.481227
    0.632140  -0.488971
    0.634107  -0.496701
    0.636075  -0.504418
    0.638043  -0.512119
    0.640011  -0.519805
    0.641981  -0.527475
    0.643950  -0.535128
    0.645919  -0.542763
    0.647889  -0.550380
    0.649859  -0.557977
    0.651828  -0.565553
    0.653798  -0.573107
    0.655767  -0.580638
    0.657736  -0.588144
    0.659704  -0.595624
    0.661672  -0.603075
    0.663639  -0.610496
    0.665606  -0.617888
    0.667571  -0.625248
    0.669535  -0.632578
    0.671498  -0.639877
    0.673460  -0.647148
    0.675420  -0.654389
    0.677379  -0.661601
    0.679336  -0.668782
    0.681291  -0.675932
    0.683245  -0.683049
    0.685195  -0.690131
    0.687144  -0.697175
    0.689090  -0.704180
    0.691034  -0.711142
    0.692974  -0.718058
    0.694636  -0.723951
    0.695119  -0.725661
    0.695602  -0.727366
    0.696085  -0.729069
    0.696568  -0.730768
    0.697050  -0.732464
    0.697532  -0.734156
    0.698014  -0.735845
    0.698496  -0.737530
    0.698978  -0.739212
    0.699459  -0.740890
    0.699940  -0.742564
    0.700421  -0.744235
    0.700902  -0.745901
    0.701382  -0.747564
    0.701862  -0.749222
    0.702342  -0.750876
    0.702821  -0.752527
    0.703301  -0.754173
    0.703780  -0.755815
    0.704258  -0.757452
    0.704737  -0.759085
    0.705215  -0.760713
    0.705693  -0.762336
    0.706170  -0.763955
    0.706647  -0.765569
    0.707124  -0.767178
    0.707601  -0.768782
    0.708077  -0.770381
    0.708553  -0.771975
    0.709029  -0.773564
    0.709504  -0.775147
    0.709979  -0.776724
    0.710454  -0.778296
    0.710928  -0.779863
    0.711402  -0.781423
    0.711875  -0.782978
    0.712348  -0.784526
    0.712821  -0.786068
    0.713293  -0.787604
    0.713765  -0.789133
    0.714237  -0.790639
    0.714709  -0.792143
    0.715180  -0.793646
    0.715650  -0.795150
    0.716120  -0.796654
    0.716590  -0.798158
    0.717059  -0.799661
    0.717527  -0.801165
    0.717995  -0.802669
    0.718463  -0.804173
    0.718930  -0.805676
    0.719396  -0.807180
    0.719862  -0.808683
    0.720328  -0.810187
    0.720793  -0.811691
    0.721257  -0.813194
    0.721721  -0.814698
    0.722184  -0.816201
    0.722647  -0.817704
    0.723109  -0.819207
    0.723571  -0.820711
    0.724033  -0.822214
    0.724493  -0.823717
    0.724954  -0.825220
    0.725413  -0.826723
    0.725873  -0.828226
    0.726331  -0.829729
    0.726789  -0.831232
    0.727247  -0.832735
    0.727704  -0.834238
    0.728161  -0.835741
    0.728617  -0.837244
    0.729073  -0.838746
    0.729528  -0.840249
    0.729982  -0.841752
    0.730436  -0.843254
    0.730888  -0.844749
    0.732696  -0.850759
    0.734497  -0.856770
    0.736289  -0.862782
    0.738073  -0.868794
    0.739848  -0.874807
    0.741615  -0.880820
    0.743373  -0.886834
    0.745123  -0.892847
    0.746865  -0.898861
    0.748598  -0.904876
    0.750323  -0.910890
    0.752039  -0.916904
    0.753746  -0.922918
    0.755446  -0.928932
    0.757137  -0.934945
    0.758819  -0.940959
    0.760493  -0.946972
    0.762158  -0.952985
    0.763815  -0.958997
    0.765463  -0.965010
    0.767103  -0.971022
    0.768734  -0.977033
    0.770357  -0.983045
    0.771971  -0.989056
    0.773577  -0.995066
    0.775174   -1.00108
    0.776763   -1.00709
    0.778343   -1.01310
    0.779915   -1.01910
    0.781478   -1.02511
    0.783033   -1.03112
    0.784579   -1.03713
    0.786117   -1.04314
    0.787646   -1.04915
    0.789167   -1.05516
    0.790680   -1.06117
    0.792183   -1.06718
    0.793679   -1.07320
    0.795166   -1.07921
    0.796645   -1.08522
    0.798115   -1.09123
    0.799577   -1.09725
    0.801031   -1.10326
    0.802476   -1.10927
    0.803913   -1.11528
    0.805341   -1.12129
    0.806761   -1.12730
    0.808173   -1.13331
    0.809577   -1.13932
    0.810972   -1.14533
    0.812359   -1.15134
    0.813738   -1.15734
    0.815108   -1.16335
    0.816471   -1.16936
    0.817825   -1.17536
    0.819171   -1.18137
    0.820509   -1.18737
    0.821838   -1.19338
    0.823160   -1.19938
    0.824473   -1.20539
    0.825778   -1.21140
    0.827076   -1.21741
    0.828365   -1.22341
    0.829646   -1.22942
    0.830919   -1.23543
    0.832184   -1.24144
    0.833442   -1.24745
    0.834691   -1.25345
    0.835932   -1.25946
    0.837166   -1.26547
    0.838392   -1.27147
    0.839610   -1.27748
    0.840820   -1.28348
    0.842022   -1.28948
    0.843216   -1.29549
    0.844403   -1.30149
    0.845582   -1.30749
    0.846753   -1.31349
    0.847917   -1.31950
    0.849073   -1.32550
    0.850222   -1.33151
    0.851362   -1.33752
    0.852496   -1.34352
    0.853622   -1.34953
    0.854740   -1.35553
    0.855851   -1.36154
    0.856954   -1.36755
    0.858050   -1.37355
    0.859139   -1.37955
    0.860220   -1.38556
    0.861294   -1.39156
    0.862361   -1.39756
    0.863421   -1.40356
    0.864473   -1.40956
    0.865518   -1.41556
    0.866556   -1.42156
    0.867586   -1.42755
    0.868610   -1.43355
    0.869626   -1.43954
    0.870636   -1.44553
    0.871638   -1.45152
    0.872633   -1.45752
    0.873621   -1.46351
    0.874603   -1.46951
    0.875577   -1.47551
    0.876545   -1.48151
    0.877506   -1.48751
    0.878460   -1.49351
    0.879407   -1.49951
    0.880348   -1.50552
    0.881282   -1.51152
    0.882209   -1.51752
    0.883129   -1.52353
    0.884043   -1.52953
    0.884951   -1.53554
    0.885852   -1.54154
    0.886746   -1.54754
    0.887634   -1.55355
    0.888515   -1.55955
    0.889391   -1.56555
    0.890259   -1.57155
    0.891122   -1.57755
    0.891978   -1.58355
    0.892828   -1.58955
    0.893671   -1.59555
    0.894509   -1.60154
    0.895340   -1.60754
    0.896165   -1.61353
    0.896984   -1.61953
    0.897797   -1.62552
    0.898603   -1.63151
    0.899404   -1.63750
    0.900199   -1.64349
    0.900988   -1.64948
    0.901771   -1.65548
    0.902548   -1.66147
    0.903319   -1.66747
    0.904084   -1.67347
    0.904844   -1.67947
    0.905598   -1.68547
    0.906346   -1.69147
    0.907089   -1.69747
    0.907826   -1.70347
    0.908557   -1.70947
    0.909283   -1.71547
    0.910003   -1.72146
    0.910717   -1.72746
    0.911427   -1.73345
    0.912130   -1.73945
    0.912829   -1.74544
    0.913522   -1.75143
